Ghost Spectrum File
Sample : 
Scan number: 29
Wavelength: 532
Polarization :    
Power: 0
Mirror sp. : 15
Ch. duration : 0.029
Scan amplitude : 50



23221
27014
26977
26791
26735
26452
25726
24194
21938
18410
15349
12818
11288
12610
15799
18951
20189
19808
18779
17750
17065
16966
16926
17591
18872
20984
23595
25663
27021
27629
28411
28303
28948
29337
28891
29052
29200
28815
29174
29116
29475
29213
29169
29435
29295
29703
29404
29722
29901
29618
29110
29682
29400
29441
29610
29758
29320
29298
29552
29403
29712
29494
29770
29652
29642
29511
29560
29837
29422
29584
29652
29725
29825
29604
29668
29246
29639
29581
29759
30028
29697
29354
29523
29639
29593
29618
29494
29595
29892
29492
29332
29793
29612
29781
29761
29771
29305
29672
29879
29734
29609
29459
29343
29605
29511
29585
29627
29534
29802
29379
29425
29427
29393
29716
29887
29648
29523
29529
29435
29821
29740
29892
29363
29498
29575
29649
29613
29899
29655
29965
29830
29552
29511
29740
29586
29347
29639
29687
29635
29604
29334
29411
29463
29688
29851
29294
29386
29682
29584
29549
29784
29593
29200
29862
29513
29568
29603
29605
29739
29482
29550
29400
29546
29630
29926
29630
29633
29476
29237
29827
29632
29638
29713
29590
29451
29454
29755
29581
29618
29425
29532
29689
29734
29759
29223
29617
29388
29702
29611
29275
29345
29529
29740
29271
29490
29436
29616
29543
29754
29404
29378
29525
29441
29432
29511
29557
29341
29599
29723
29639
29203
29574
30049
30008
29556
29364
29260
29507
29583
29367
29688
29594
29389
29464
29459
29385
29299
29385
29053
29211
29492
28929
28840
28465
28921
28377
28500
28104
27912
27691
26843
25826
23571
21411
17759
14437
12288
11770
14589
19449
23580
25975
26777
27455
27750
28261
28112
27961
27683
27619
27229
26472
25140
23704
22147
20376
19010
18235
17620
17146
17247
18304
20428
23240
25278
26757
27714
28226
28618
28914
28976
28845
29038
28956
29251
29212
29440
29518
29585
29337
29543
29385
29292
29576
29314
29433
29145
29382
29521
29669
29546
29564
29340
29250
29552
29530
29600
29669
29583
29333
29485
29356
29904
29787
29879
29349
29690
29815
29336
29515
29672
29366
29460
29661
29471
29459
29578
29444
29838
29940
29595
29732
29751
29431
29549
29699
29450
29918
29473
29754
29536
29651
29294
29923
29985
29488
29725
29743
29259
29343
29643
30112
29270
29816
29506
29619
29552
29924
29434
29704
29345
29479
30048
29759
29665
29404
29545
29432
29607
29699
29830
29601
29693
29778
29597
29688
29502
29596
29569
29571
29779
29457
29630
29628
29853
29662
29311
29375
29744
29639
29630
29510
29686
29496
29424
29680
29437
29875
29371
29616
29190
29676
29649
29413
29509
29408
29626
29629
30105
29531
29668
29568
29743
29205
29630
29449
29542
29485
29888
29602
29728
29641
29577
29542
29677
29615
29884
29205
29816
29692
29610
29585
29520
29338
29485
29652
29700
29340
29664
29845
29321
29726
29510
29629
29679
29493
29723
29321
29473
29741
29592
29378
29465
29493
29300
29348
29638
29479
29091
29625
29577
29038
29489
29248
29334
29180
29080
28805
28669
28848
28551
28303
28205
27670
27352
26493
25047
22342
19277
15633
13096
11908
13837
17745
22537
25235
26775
27390
27818
28293
28552
28604
28689
28693
28691
28655
28674
28786
28788
28683
28791
29021
28927
28646
28167
28343
28031
27066
26252
24951
23863
21824
